0.000	0.000	0.000	0.000	0.000	0.000
3515130861.829	0.000	0.000	0.000	NaN	98011484.000
3515130861.866	0.000	0.000	0.000	NaN	98011484.000
3515130863.362	-5.017	-23.091	-28.108	0.822	98011484.000
3515130864.865	1006.994	501.122	1508.116	0.332	98011484.000
3515130866.364	1078.387	510.007	1588.394	0.321	98011484.000
3515130867.868	1048.857	550.751	1599.608	0.344	98011484.000
3515130869.368	1030.437	375.131	1405.568	0.267	98011484.000
3515130870.869	955.488	623.869	1579.357	0.395	98011484.000
3515130872.368	962.813	420.713	1383.526	0.304	98011484.000
3515130873.868	1042.512	582.727	1625.239	0.359	98011484.000
3515130875.362	938.482	475.962	1414.444	0.337	98011484.000
3515130876.869	1064.936	546.513	1611.449	0.339	98011484.000
3515130878.369	1061.870	510.891	1572.761	0.325	98011484.000
3515130879.868	1034.031	406.898	1440.929	0.282	98011484.000
3515130881.368	1032.167	404.827	1436.994	0.282	98011484.000
3515130882.869	998.290	350.667	1348.957	0.260	98011484.000
3515130884.367	993.095	413.313	1406.408	0.294	98011484.000
3515130885.861	1125.674	618.344	1744.018	0.355	98011484.000
3515130887.368	1070.748	302.511	1373.259	0.220	98011484.000
3515130888.868	970.406	365.460	1335.866	0.274	98011484.000
3515130890.367	1071.995	317.509	1389.504	0.229	98011484.000
3515130891.868	1046.954	324.816	1371.770	0.237	98011484.000
3515130893.368	1086.643	402.658	1489.301	0.270	98011484.000
3515130894.869	1019.070	356.189	1375.259	0.259	98011484.000
3515130896.370	1068.264	430.878	1499.142	0.287	98011484.000
3515130897.869	1101.832	366.249	1468.081	0.249	98011484.000
3515130899.363	1063.647	329.751	1393.398	0.237	98011484.000
3515130900.864	1017.202	447.253	1464.455	0.305	98011484.000
3515130902.362	1036.073	412.329	1448.402	0.285	98011484.000
3515130903.868	985.010	346.716	1331.726	0.260	98011484.000
3515130905.368	1067.551	330.831	1398.382	0.237	98011484.000
3515130906.868	987.324	325.896	1313.219	0.248	98011484.000
3515130908.368	1126.296	439.264	1565.560	0.281	98011484.000
3515130909.868	1049.881	389.338	1439.219	0.271	98011484.000
3515130911.369	1022.757	281.202	1303.959	0.216	98011484.000
3515130912.871	1040.071	398.911	1438.982	0.277	98011484.000
3515130914.370	1105.384	334.284	1439.668	0.232	98011484.000
3515130915.869	1450.995	-44.300	1406.695	-0.031	98011484.000
3515130917.370	994.337	230.389	1224.726	0.188	98011484.000
3515130918.870	1107.514	487.909	1595.423	0.306	98011484.000
3515130920.370	940.347	345.524	1285.872	0.269	98011484.000
3515130921.868	993.403	295.009	1288.412	0.229	98011484.000
3515130923.369	1062.895	423.876	1486.771	0.285	98011484.000
3515130924.868	1061.603	328.856	1390.459	0.237	98011484.000
3515130926.368	1057.919	410.062	1467.981	0.279	98011484.000
3515130927.869	1033.854	337.936	1371.790	0.246	98011484.000
3515130929.370	993.270	289.878	1283.148	0.226	98011484.000
3515130930.870	925.916	251.398	1177.314	0.214	98011484.000
3515130932.370	1035.364	372.467	1407.831	0.265	98011484.000
3515130933.868	1054.233	341.487	1395.720	0.245	98011484.000
3515130935.368	990.964	294.713	1285.677	0.229	98011484.000
3515130936.870	987.545	259.304	1246.849	0.208	98011484.000
3515130938.369	1073.949	294.822	1368.771	0.215	98011484.000
3515130939.870	1018.539	362.602	1381.141	0.263	98011484.000
3515130941.370	1018.139	321.260	1339.399	0.240	98011484.000
3515130942.870	1044.466	371.673	1416.139	0.262	98011484.000
3515130944.372	962.147	358.160	1320.307	0.271	98011484.000
3515130945.868	1042.733	364.664	1407.397	0.259	98011484.000
3515130947.369	1103.250	356.776	1460.026	0.244	98011484.000
3515130948.870	996.291	37.684	1033.975	0.036	98011484.000
3515130950.370	988.832	-61.967	926.865	-0.067	98011484.000
3515130951.870	1019.735	-14.309	1005.426	-0.014	98011484.000
3515130953.369	948.249	-31.873	916.376	-0.035	98011484.000
3515130954.871	1039.230	-17.464	1021.766	-0.017	98011484.000
3515130956.371	1029.323	5.620	1034.943	0.005	98011484.000
3515130957.868	1008.856	110.311	1119.167	0.099	98011484.000
3515130959.370	1034.434	-58.111	976.323	-0.060	98011484.000
3515130960.870	1046.372	89.487	1135.859	0.079	98011484.000
3515130962.369	963.348	550.667	1514.015	0.364	98011484.000
3515130963.870	1037.139	759.833	1796.972	0.423	98011484.000
3515130965.370	1057.786	553.018	1610.804	0.343	98011484.000
3515130966.870	1043.088	509.116	1552.203	0.328	98011484.000
3515130968.370	1050.103	581.440	1631.543	0.356	98011484.000
3515130969.870	1037.094	689.080	1726.174	0.399	98011484.000
3515130971.369	1004.106	629.987	1634.093	0.386	98011484.000
3515130972.870	1011.920	554.309	1566.229	0.354	98011484.000
3515130974.369	1014.320	487.316	1501.635	0.325	98011484.000
3515130975.869	1022.128	633.829	1655.957	0.383	98011484.000
3515130977.370	983.370	501.911	1485.281	0.338	98011484.000
3515130978.871	983.901	538.913	1522.814	0.354	98011484.000
3515130980.371	1019.333	455.838	1475.171	0.309	98011484.000
3515130981.870	1091.570	562.098	1653.668	0.340	98011484.000
3515130983.371	1059.739	552.631	1612.370	0.343	98011484.000
3515130984.870	1056.675	507.638	1564.313	0.325	98011484.000
3515130986.370	1077.856	566.144	1644.000	0.344	98011484.000
3515130987.870	1024.086	397.231	1421.317	0.279	98011484.000
3515130989.370	937.862	517.704	1455.566	0.356	98011484.000
3515130990.870	1048.016	584.598	1632.614	0.358	98011484.000
3515130992.371	956.554	532.004	1488.558	0.357	98011484.000
3515130993.870	940.123	477.744	1417.867	0.337	98011484.000
3515130995.370	1144.011	593.182	1737.193	0.341	98011484.000
3515130996.869	1115.502	635.316	1750.818	0.363	98011484.000
3515130998.369	1007.035	567.429	1574.464	0.360	98011484.000
3515130999.872	1083.448	495.800	1579.248	0.314	98011484.000
3515131001.371	1078.563	-69.956	1008.607	-0.069	98011484.000
3515131002.872	1042.601	69.758	1112.359	0.063	98011484.000
3515131004.376	1036.165	-36.116	1000.049	-0.036	98011484.000
3515131005.871	1037.050	3.453	1040.503	0.003	98011484.000
3515131007.370	1078.429	104.191	1182.620	0.088	98011484.000
3515131008.871	1040.070	-41.936	998.134	-0.042	98011484.000
3515131010.371	1047.663	89.978	1137.641	0.079	98011484.000
3515131011.871	999.222	-45.784	953.438	-0.048	98011484.000
3515131013.370	1045.044	469.653	1514.697	0.310	98011484.000
3515131014.870	1081.407	288.109	1369.516	0.210	98011484.000
3515131016.372	1061.383	394.469	1455.852	0.271	98011484.000
3515131017.870	1037.940	377.993	1415.933	0.267	98011484.000
3515131019.371	1044.202	235.716	1279.918	0.184	98011484.000
3515131020.870	981.816	270.351	1252.167	0.216	98011484.000
3515131022.370	1070.618	473.698	1544.316	0.307	98011484.000
3515131023.871	1088.287	312.573	1400.860	0.223	98011484.000
3515131025.371	1101.429	315.629	1417.058	0.223	98011484.000
3515131026.872	1002.242	259.100	1261.342	0.205	98011484.000
3515131028.371	1067.467	358.060	1425.527	0.251	98011484.000
3515131029.871	1007.350	378.193	1385.543	0.273	98011484.000
3515131031.370	1024.663	408.087	1432.750	0.285	98011484.000
3515131032.871	1019.114	505.176	1524.290	0.331	98011484.000
3515131034.372	1087.354	302.900	1390.254	0.218	98011484.000
3515131035.872	1016.183	392.589	1408.772	0.279	98011484.000
3515131037.372	951.003	342.960	1293.963	0.265	98011484.000
3515131038.870	1064.714	336.453	1401.167	0.240	98011484.000
3515131040.371	1031.590	346.516	1378.106	0.251	98011484.000
3515131041.871	1113.283	324.111	1437.394	0.225	98011484.000
3515131043.371	1034.475	372.176	1406.651	0.265	98011484.000
3515131044.871	1050.728	330.833	1381.561	0.239	98011484.000
3515131046.371	979.378	442.922	1422.300	0.311	98011484.000
3515131047.871	1130.202	552.929	1683.131	0.329	98011484.000
3515131049.371	1034.828	316.722	1351.550	0.234	98011484.000
3515131050.871	1001.487	397.038	1398.525	0.284	98011484.000
3515131052.373	1099.609	453.071	1552.680	0.292	98011484.000
3515131053.871	993.225	252.093	1245.318	0.202	98011484.000
3515131055.372	954.731	300.536	1255.267	0.239	98011484.000
3515131056.871	1023.240	356.964	1380.204	0.259	98011484.000
3515131058.371	1100.674	356.478	1457.152	0.245	98011484.000
3515131059.871	1126.248	515.629	1641.877	0.314	98011484.000
3515131061.371	1028.880	366.053	1394.933	0.262	98011484.000
3515131062.872	1050.459	406.411	1456.870	0.279	98011484.000
3515131064.373	983.723	315.340	1299.063	0.243	98011484.000
3515131065.871	1007.124	334.382	1341.506	0.249	98011484.000
3515131067.370	1018.758	42.624	1061.382	0.040	98011484.000
3515131068.872	1090.556	13.420	1103.976	0.012	98011484.000
3515131070.372	964.987	-47.958	917.029	-0.052	98011484.000
3515131071.872	1027.236	-9.184	1018.052	-0.009	98011484.000
3515131073.372	995.980	36.211	1032.191	0.035	98011484.000
3515131074.873	1051.793	-45.584	1006.208	-0.045	98011484.000
3515131076.373	1087.134	56.138	1143.272	0.049	98011484.000
3515131077.871	1049.792	-9.473	1040.319	-0.009	98011484.000
3515131079.371	1068.707	58.413	1127.120	0.052	98011484.000
3515131080.871	1120.030	153.716	1273.746	0.121	98011484.000
3515131082.371	1073.987	570.584	1644.572	0.347	98011484.000
3515131083.871	1013.518	533.189	1546.707	0.345	98011484.000
3515131085.372	1061.913	586.967	1648.880	0.356	98011484.000
3515131086.873	1025.552	504.673	1530.225	0.330	98011484.000
3515131088.374	1086.688	475.178	1561.866	0.304	98011484.000
3515131089.871	1034.518	607.687	1642.205	0.370	98011484.000
3515131091.373	1046.908	635.409	1682.317	0.378	98011484.000
3515131092.872	1071.728	655.244	1726.972	0.379	98011484.000
3515131094.373	1038.693	529.933	1568.626	0.338	98011484.000
3515131095.873	1028.661	582.631	1611.292	0.362	98011484.000
3515131097.370	1069.282	616.467	1685.749	0.366	98011484.000
3515131098.872	1033.410	684.844	1718.254	0.399	98011484.000
3515131100.373	1023.734	610.356	1634.090	0.374	98011484.000
3515131101.872	970.096	548.689	1518.785	0.361	98011484.000
3515131103.372	958.599	486.031	1444.630	0.336	98011484.000
3515131104.873	1038.960	594.860	1633.820	0.364	98011484.000
3515131106.372	1060.051	721.849	1781.900	0.405	98011484.000
3515131107.873	1072.482	611.829	1684.311	0.363	98011484.000
3515131109.374	1110.758	588.747	1699.505	0.346	98011484.000
3515131110.873	990.654	631.569	1622.223	0.389	98011484.000
3515131112.373	1068.442	511.291	1579.733	0.324	98011484.000
3515131113.919	1040.027	694.322	1734.349	0.400	98011484.000
3515131115.372	40.224	30.982	71.206	0.435	98011484.000
3515131116.860	5.993	12.033	18.026	0.668	98011484.000
3515131118.372	995.319	600.984	1596.303	0.376	98011484.000
3515131119.860	952.428	700.047	1652.475	0.424	98011484.000
3515131121.360	1057.518	616.369	1673.887	0.368	98011484.000
3515131122.873	1054.275	623.276	1677.551	0.372	98011484.000
3515131124.373	1043.133	596.636	1639.769	0.364	98011484.000
3515131125.872	980.177	670.638	1650.815	0.406	98011484.000
3515131127.373	1073.326	564.578	1637.904	0.345	98011484.000
3515131128.872	1058.051	711.084	1769.135	0.402	98011484.000
3515131130.368	1141.392	616.471	1757.863	0.351	98011484.000
3515131131.872	1060.271	716.520	1776.791	0.403	98011484.000
3515131133.374	1033.190	599.398	1632.588	0.367	98011484.000
3515131134.874	1103.295	671.233	1774.528	0.378	98011484.000
3515131136.374	1078.209	552.531	1630.740	0.339	98011484.000
3515131137.873	1106.448	627.911	1734.359	0.362	98011484.000
3515131139.373	1006.014	613.013	1619.027	0.379	98011484.000
3515131140.874	1046.598	606.898	1653.496	0.367	98011484.000
3515131142.373	1111.731	625.549	1737.280	0.360	98011484.000
3515131143.873	1111.595	609.851	1721.446	0.354	98011484.000
3515131145.373	1084.203	607.589	1691.792	0.359	98011484.000
3515131146.874	1059.471	598.018	1657.489	0.361	98011484.000
3515131148.370	1023.286	517.207	1540.493	0.336	98011484.000
3515131149.872	1022.001	552.033	1574.034	0.351	98011484.000
3515131151.372	1093.973	660.682	1754.655	0.377	98011484.000
3515131152.871	1033.542	642.613	1676.156	0.383	98011484.000
3515131154.373	1067.021	566.840	1633.861	0.347	98011484.000
3515131155.874	1067.420	642.618	1710.038	0.376	98011484.000
3515131157.374	1007.435	581.053	1588.489	0.366	98011484.000
3515131158.874	1014.583	607.000	1621.583	0.374	98011484.000
3515131160.371	1052.191	560.029	1612.220	0.347	98011484.000
3515131161.874	1043.712	569.113	1612.825	0.353	98011484.000
3515131163.371	1014.272	607.193	1621.465	0.374	98011484.000
3515131164.874	1010.188	562.991	1573.179	0.358	98011484.000
3515131166.373	975.378	551.442	1526.820	0.361	98011484.000
3515131167.874	1029.104	548.191	1577.295	0.348	98011484.000
3515131169.374	1105.203	637.980	1743.183	0.366	98011484.000
3515131170.874	1132.378	680.996	1813.374	0.376	98011484.000
3515131172.374	1019.159	664.718	1683.877	0.395	98011484.000
3515131173.873	1004.506	694.313	1698.819	0.409	98011484.000
3515131175.373	963.837	557.171	1521.008	0.366	98011484.000
3515131176.875	1101.210	679.422	1780.632	0.382	98011484.000
3515131178.375	962.901	555.498	1518.399	0.366	98011484.000
3515131179.871	1054.367	523.224	1577.592	0.332	98011484.000
3515131181.374	1049.350	689.978	1739.328	0.397	98011484.000
3515131182.872	1038.827	691.753	1730.580	0.400	98011484.000
3515131184.374	1039.093	588.053	1627.146	0.361	98011484.000
3515131185.872	1024.266	613.611	1637.877	0.375	98011484.000
3515131187.372	1033.900	661.667	1695.567	0.390	98011484.000
3515131188.872	1058.409	795.051	1853.460	0.429	98011484.000
3515131190.373	1066.137	662.353	1728.490	0.383	98011484.000
3515131191.871	1030.391	695.304	1725.696	0.403	98011484.000
3515131193.375	988.433	683.953	1672.386	0.409	98011484.000
3515131194.875	1031.503	749.378	1780.881	0.421	98011484.000
3515131196.375	991.763	601.273	1593.036	0.377	98011484.000
3515131197.873	1068.973	585.789	1654.762	0.354	98011484.000
3515131199.375	1079.011	663.536	1742.547	0.381	98011484.000
3515131200.872	1090.285	755.191	1845.476	0.409	98011484.000
3515131202.372	1064.048	675.976	1740.024	0.388	98011484.000
3515131203.874	1107.158	745.522	1852.680	0.402	98011484.000
3515131205.374	1009.034	693.431	1702.465	0.407	98011484.000
3515131206.874	1010.012	521.456	1531.468	0.340	98011484.000
3515131208.376	1070.443	510.207	1580.650	0.323	98011484.000
3515131209.873	1098.766	537.833	1636.599	0.329	98011484.000
3515131211.371	927.427	404.436	1331.863	0.304	98011484.000
3515131212.874	946.785	279.033	1225.818	0.228	98011484.000
3515131214.371	1027.193	376.511	1403.704	0.268	98011484.000
3515131215.874	1024.532	399.009	1423.541	0.280	98011484.000
3515131217.375	1038.828	314.851	1353.679	0.233	98011484.000
3515131218.876	998.159	204.042	1202.201	0.170	98011484.000
3515131220.376	1066.001	126.784	1192.785	0.106	98011484.000
3515131221.873	960.682	275.973	1236.655	0.223	98011484.000
3515131223.372	1056.318	320.664	1376.982	0.233	98011484.000
3515131224.872	911.576	183.718	1095.294	0.168	98011484.000
3515131226.373	1049.837	278.731	1328.568	0.210	98011484.000
3515131227.875	1049.528	334.580	1384.108	0.242	98011484.000
3515131229.375	1041.670	483.362	1525.032	0.317	98011484.000
3515131230.876	982.793	388.251	1371.044	0.283	98011484.000
3515131232.376	1060.494	493.524	1554.018	0.318	98011484.000
3515131233.874	1027.683	482.185	1509.867	0.319	98011484.000
3515131235.374	988.699	481.296	1469.995	0.327	98011484.000
3515131236.872	943.633	513.456	1457.089	0.352	98011484.000
3515131238.374	949.272	467.980	1417.252	0.330	98011484.000
3515131239.872	1053.079	798.411	1851.490	0.431	98011484.000
3515131241.374	1049.171	676.458	1725.629	0.392	98011484.000
3515131242.876	1025.195	636.991	1662.186	0.383	98011484.000
3515131244.375	1014.986	657.716	1672.702	0.393	98011484.000
3515131245.875	1034.653	718.987	1753.640	0.410	98011484.000
3515131247.373	1020.889	592.491	1613.380	0.367	98011484.000
3515131248.875	991.583	721.056	1712.638	0.421	98011484.000
3515131250.375	995.360	631.562	1626.922	0.388	98011484.000
3515131251.875	1046.908	599.009	1645.917	0.364	98011484.000
3515131253.374	1025.019	625.051	1650.070	0.379	98011484.000
3515131254.876	1034.965	593.969	1628.934	0.365	98011484.000
3515131256.376	1050.463	669.656	1720.119	0.389	98011484.000
3515131257.874	1143.879	684.349	1828.228	0.374	98011484.000
3515131259.374	1087.933	753.322	1841.255	0.409	98011484.000
3515131260.875	957.265	468.369	1425.634	0.329	98011484.000
3515131262.375	1049.529	670.833	1720.362	0.390	98011484.000
3515131263.875	1062.579	662.053	1724.632	0.384	98011484.000
3515131265.377	1067.463	595.844	1663.307	0.358	98011484.000
3515131266.876	1035.411	714.751	1750.162	0.408	98011484.000
3515131268.376	1011.700	625.747	1637.447	0.382	98011484.000
3515131269.876	1070.216	660.664	1730.880	0.382	98011484.000
3515131271.374	1049.438	559.736	1609.174	0.348	98011484.000
3515131272.874	1034.964	672.411	1707.375	0.394	98011484.000
3515131274.374	1021.199	521.647	1542.846	0.338	98011484.000
3515131275.874	1021.775	627.324	1649.100	0.380	98011484.000
3515131277.376	993.408	630.676	1624.083	0.388	98011484.000
3515131278.875	1037.940	777.009	1814.949	0.428	98011484.000
3515131280.375	1042.822	613.111	1655.933	0.370	98011484.000
3515131281.875	1044.955	756.578	1801.533	0.420	98011484.000
3515131283.373	1048.240	629.784	1678.024	0.375	98011484.000
3515131284.873	1092.106	585.778	1677.884	0.349	98011484.000
3515131286.373	1087.000	591.111	1678.111	0.352	98011484.000
3515131287.877	1053.745	453.667	1507.412	0.301	98011484.000
3515131289.376	980.040	376.218	1356.258	0.277	98011484.000
3515131290.877	931.603	296.398	1228.001	0.241	98011484.000
3515131292.376	991.675	303.104	1294.779	0.234	98011484.000
3515131293.874	994.028	146.524	1140.552	0.128	98011484.000
3515131295.374	998.820	242.818	1241.638	0.196	98011484.000
3515131296.875	1067.065	310.507	1377.572	0.225	98011484.000
3515131298.377	1041.714	322.149	1363.863	0.236	98011484.000
3515131299.875	1020.980	417.460	1438.440	0.290	98011484.000
3515131301.375	1092.108	348.587	1440.695	0.242	98011484.000
3515131302.876	1092.419	515.736	1608.155	0.321	98011484.000
3515131304.377	994.293	304.584	1298.877	0.234	98011484.000
3515131305.874	1066.442	490.271	1556.713	0.315	98011484.000
3515131307.376	998.332	314.056	1312.388	0.239	98011484.000
3515131308.876	1083.406	397.529	1480.935	0.268	98011484.000
3515131310.377	1048.775	436.507	1485.282	0.294	98011484.000
3515131311.876	1059.516	526.780	1586.296	0.332	98011484.000
3515131313.377	1134.818	643.307	1778.125	0.362	98011484.000
3515131314.877	1019.956	591.313	1611.269	0.367	98011484.000
3515131316.378	1025.816	606.596	1632.412	0.372	98011484.000
3515131317.876	1037.718	549.576	1587.294	0.346	98011484.000
3515131319.377	1102.675	535.764	1638.439	0.327	98011484.000
3515131320.877	1041.310	454.158	1495.468	0.304	98011484.000
3515131322.376	1042.824	477.644	1520.469	0.314	98011484.000
3515131323.877	1050.329	474.100	1524.429	0.311	98011484.000
3515131325.377	953.979	326.387	1280.366	0.255	98011484.000
3515131326.877	956.596	206.702	1163.298	0.178	98011484.000
3515131328.377	1039.405	357.471	1396.876	0.256	98011484.000
3515131329.874	994.785	371.976	1366.761	0.272	98011484.000
3515131331.378	977.111	383.811	1360.922	0.282	98011484.000
3515131332.878	959.487	308.831	1268.318	0.243	98011484.000
3515131334.378	1051.169	409.862	1461.031	0.281	98011484.000
3515131335.877	1066.312	486.629	1552.941	0.313	98011484.000
3515131337.377	977.728	339.898	1317.626	0.258	98011484.000
3515131338.877	993.630	351.358	1344.988	0.261	98011484.000
3515131340.377	998.334	344.636	1342.969	0.257	98011484.000
3515131341.877	1016.848	310.400	1327.248	0.234	98011484.000
3515131343.377	987.767	460.576	1448.343	0.318	98011484.000
3515131344.876	1000.330	316.416	1316.745	0.240	98011484.000
3515131346.377	1013.295	339.018	1352.313	0.251	98011484.000
3515131347.877	1044.331	462.151	1506.482	0.307	98011484.000
3515131349.377	1103.163	470.742	1573.905	0.299	98011484.000
3515131350.878	993.495	354.216	1347.711	0.263	98011484.000
3515131352.379	1048.328	346.909	1395.237	0.249	98011484.000
3515131353.875	1012.676	335.173	1347.849	0.249	98011484.000
3515131355.377	978.220	357.960	1336.180	0.268	98011484.000
3515131356.878	1020.446	355.096	1375.541	0.258	98011484.000
3515131358.377	966.366	286.036	1252.402	0.228	98011484.000
3515131359.877	1012.231	308.524	1320.755	0.234	98011484.000
3515131361.377	1013.520	229.604	1243.124	0.185	98011484.000
3515131362.878	1057.649	315.438	1373.087	0.230	98011484.000
3515131364.378	1025.017	450.805	1475.822	0.305	98011484.000
3515131365.877	1002.597	717.004	1719.602	0.417	98011484.000
3515131367.377	1015.964	155.204	1171.168	0.133	98011484.000
3515131368.877	977.244	511.191	1488.435	0.343	98011484.000
3515131370.377	1097.968	593.189	1691.157	0.351	98011484.000
3515131371.877	1061.338	564.176	1625.514	0.347	98011484.000
3515131373.379	1081.403	586.560	1667.963	0.352	98011484.000
3515131374.879	1092.906	573.253	1666.159	0.344	98011484.000
3515131376.379	1082.251	546.907	1629.158	0.336	98011484.000
3515131377.877	1056.630	399.407	1456.036	0.274	98011484.000
3515131379.377	1040.823	447.449	1488.272	0.301	98011484.000
3515131380.877	1083.538	536.449	1619.987	0.331	98011484.000
3515131382.378	1028.486	516.524	1545.010	0.334	98011484.000
3515131383.879	1016.184	557.269	1573.453	0.354	98011484.000
3515131385.379	1089.574	504.385	1593.958	0.316	98011484.000
3515131386.879	1013.520	546.122	1559.642	0.350	98011484.000
3515131388.378	1076.524	590.329	1666.853	0.354	98011484.000
3515131389.877	1049.437	573.642	1623.079	0.353	98011484.000
3515131391.377	962.416	437.396	1399.812	0.312	98011484.000
3515131392.877	1088.113	462.151	1550.264	0.298	98011484.000
3515131394.378	952.650	568.524	1521.174	0.374	98011484.000
3515131395.879	1131.310	552.827	1684.137	0.328	98011484.000
3515131397.378	1089.886	471.133	1561.020	0.302	98011484.000
3515131398.878	1085.135	462.653	1547.788	0.299	98011484.000
3515131400.378	1077.140	463.629	1540.769	0.301	98011484.000
3515131401.879	1048.463	500.038	1548.501	0.323	98011484.000
3515131403.379	1030.436	456.140	1486.576	0.307	98011484.000
3515131404.879	928.270	468.760	1397.030	0.336	98011484.000
3515131406.379	1025.730	379.476	1405.206	0.270	98011484.000
3515131407.879	1045.490	486.138	1531.628	0.317	98011484.000
3515131409.379	1031.014	549.378	1580.392	0.348	98011484.000
3515131410.878	1002.239	547.311	1549.550	0.353	98011484.000
3515131412.378	988.474	457.709	1446.183	0.316	98011484.000
3515131413.878	1028.572	396.349	1424.921	0.278	98011484.000
3515131415.378	1015.519	394.373	1409.892	0.280	98011484.000
3515131416.878	1072.703	287.609	1360.312	0.211	98011484.000
3515131418.379	1072.306	222.289	1294.595	0.172	98011484.000
3515131419.880	1088.421	221.702	1310.123	0.169	98011484.000
3515131421.379	1031.500	234.044	1265.544	0.185	98011484.000
3515131422.880	971.072	137.540	1108.612	0.124	98011484.000
3515131424.379	983.549	227.920	1211.469	0.188	98011484.000
3515131425.878	1021.601	311.202	1332.803	0.233	98011484.000
3515131427.379	1044.864	246.776	1291.640	0.191	98011484.000
3515131428.878	1078.700	416.471	1495.171	0.279	98011484.000
3515131430.378	1040.646	450.809	1491.455	0.302	98011484.000
3515131431.878	1032.300	493.338	1525.638	0.323	98011484.000
3515131433.378	1090.596	567.627	1658.223	0.342	98011484.000
3515131434.878	1042.070	599.007	1641.077	0.365	98011484.000
3515131436.381	1045.442	574.538	1619.980	0.355	98011484.000
3515131437.879	998.825	585.884	1584.709	0.370	98011484.000
3515131439.378	1046.510	566.340	1612.850	0.351	98011484.000
3515131440.879	1080.253	530.736	1610.989	0.329	98011484.000
3515131442.380	1019.693	361.022	1380.715	0.261	98011484.000
3515131443.879	960.014	459.489	1419.503	0.324	98011484.000
3515131445.379	1048.815	437.487	1486.302	0.294	98011484.000
3515131446.879	1084.512	582.427	1666.939	0.349	98011484.000
3515131448.380	1083.314	566.642	1649.956	0.343	98011484.000
3515131449.878	1093.394	522.147	1615.541	0.323	98011484.000
3515131451.378	1076.257	598.313	1674.570	0.357	98011484.000
3515131452.878	1076.615	449.531	1526.146	0.295	98011484.000
3515131454.379	1023.420	417.956	1441.375	0.290	98011484.000
3515131455.879	1037.719	448.538	1486.257	0.302	98011484.000
3515131457.380	1103.075	615.789	1718.864	0.358	98011484.000
3515131458.879	1027.595	488.796	1516.391	0.322	98011484.000
3515131460.380	1078.387	621.896	1700.283	0.366	98011484.000
3515131461.878	1030.392	542.860	1573.252	0.345	98011484.000
3515131463.380	1059.562	555.296	1614.858	0.344	98011484.000
3515131464.880	1100.539	605.611	1706.150	0.355	98011484.000
3515131466.379	1056.896	495.500	1552.396	0.319	98011484.000
3515131467.880	1089.620	586.373	1675.993	0.350	98011484.000
3515131469.379	1022.220	461.960	1484.180	0.311	98011484.000
3515131470.881	1038.829	427.727	1466.556	0.292	98011484.000
3515131472.381	981.954	438.380	1420.334	0.309	98011484.000
3515131473.879	1131.445	537.338	1668.783	0.322	98011484.000
3515131475.379	1038.827	578.482	1617.309	0.358	98011484.000
3515131476.880	1062.892	474.296	1537.188	0.309	98011484.000
3515131478.379	1056.852	656.820	1713.672	0.383	98011484.000
3515131479.880	1065.380	511.493	1576.873	0.324	98011484.000
3515131481.380	1077.589	440.942	1518.531	0.290	98011484.000
3515131482.880	1068.486	527.671	1596.157	0.331	98011484.000
3515131484.380	1069.151	444.098	1513.249	0.293	98011484.000
3515131485.880	1067.866	602.558	1670.424	0.361	98011484.000
3515131487.380	1004.770	59.000	1063.770	0.055	98011484.000
3515131488.880	1080.343	151.158	1231.501	0.123	98011484.000
3515131490.380	995.847	-36.407	959.440	-0.038	98011484.000
3515131491.881	1163.724	-1.376	1162.348	-0.001	98011484.000
3515131493.381	998.068	-28.611	969.457	-0.030	98011484.000
3515131494.880	1058.144	-50.620	1007.524	-0.050	98011484.000
3515131496.380	1040.824	108.038	1148.862	0.094	98011484.000
3515131497.880	1046.378	-66.107	980.271	-0.067	98011484.000
3515131499.380	1087.758	-24.962	1062.796	-0.023	98011484.000
3515131500.880	1159.685	160.727	1320.412	0.122	98011484.000
3515131502.380	1158.839	18.942	1177.781	0.016	98011484.000
3515131503.879	1048.508	38.384	1086.892	0.035	98011484.000
3515131505.380	1120.346	-54.860	1065.486	-0.051	98011484.000
3515131506.882	1087.446	21.709	1109.155	0.020	98011484.000
3515131508.381	1037.851	23.378	1061.229	0.022	98011484.000
3515131509.880	983.548	24.960	1008.508	0.025	98011484.000
3515131511.381	1098.323	14.507	1112.830	0.013	98011484.000
3515131512.881	1051.127	15.291	1066.418	0.014	98011484.000
3515131514.380	1122.878	89.400	1212.278	0.074	98011484.000
3515131515.880	1175.622	14.407	1190.029	0.012	98011484.000
3515131517.381	1113.202	-230.478	882.724	-0.261	98011484.000
3515131518.880	1056.542	51.602	1108.144	0.047	98011484.000
3515131520.380	1119.237	199.509	1318.746	0.151	98011484.000
3515131521.880	1101.033	5.627	1106.660	0.005	98011484.000
3515131523.381	1088.419	14.896	1103.314	0.014	98011484.000
3515131524.880	1070.571	58.809	1129.380	0.052	98011484.000
3515131526.380	1067.909	1.089	1068.998	0.001	98011484.000
3515131527.882	1057.739	-20.824	1036.915	-0.020	98011484.000
3515131529.382	1081.188	74.493	1155.681	0.064	98011484.000
3515131530.881	1067.598	-13.716	1053.882	-0.013	98011484.000
3515131532.380	1133.712	-29.893	1103.819	-0.027	98011484.000
3515131533.880	1153.288	91.658	1244.946	0.074	98011484.000
3515131535.381	1099.656	-38.771	1060.885	-0.037	98011484.000
3515131536.880	1151.425	113.760	1265.185	0.090	98011484.000
3515131538.380	1008.011	77.356	1085.367	0.071	98011484.000
3515131539.881	1060.403	-21.211	1039.192	-0.020	98011484.000
3515131541.382	1117.503	48.836	1166.339	0.042	98011484.000
3515131542.882	1064.491	6.013	1070.504	0.006	98011484.000
3515131544.381	0.978	10.660	11.638	0.916	98011484.000
3515131545.881	1043.973	-20.424	1023.548	-0.020	98011484.000
3515131547.381	1048.460	-34.836	1013.624	-0.034	98011484.000
3515131548.880	1032.390	-52.780	979.610	-0.054	98011484.000
3515131550.381	1072.748	118.302	1191.050	0.099	98011484.000
3515131551.881	1104.096	-5.122	1098.974	-0.005	98011484.000
3515131553.381	1126.560	111.589	1238.149	0.090	98011484.000
3515131554.881	1094.640	47.856	1142.496	0.042	98011484.000
3515131556.381	1123.854	101.429	1225.283	0.083	98011484.000
3515131557.881	1169.809	72.324	1242.133	0.058	98011484.000
3515131559.382	1003.703	-8.389	995.314	-0.008	98011484.000
3515131560.882	1083.493	-29.702	1053.791	-0.028	98011484.000
3515131562.382	1172.826	-120.776	1052.051	-0.115	98011484.000
3515131563.882	1059.518	-17.856	1041.662	-0.017	98011484.000
3515131565.382	1117.636	123.631	1241.267	0.100	98011484.000
3515131566.881	1069.863	18.253	1088.116	0.017	98011484.000
3515131568.381	1068.796	42.724	1111.521	0.038	98011484.000
3515131569.880	1048.772	-38.478	1010.294	-0.038	98011484.000
3515131571.380	1104.895	10.464	1115.359	0.009	98011484.000
3515131572.881	1097.744	-20.327	1077.417	-0.019	98011484.000
3515131574.381	1135.574	64.922	1200.496	0.054	98011484.000
3515131575.882	1132.242	-1.480	1130.762	-0.001	98011484.000
3515131577.382	1141.345	-47.453	1093.892	-0.043	98011484.000
3515131578.882	1134.374	10.756	1145.130	0.009	98011484.000
3515131580.382	1166.876	107.247	1274.123	0.084	98011484.000
3515131581.882	1119.190	-54.662	1064.528	-0.051	98011484.000
3515131583.382	1110.888	37.196	1148.083	0.032	98011484.000
3515131584.881	1118.479	-41.242	1077.237	-0.038	98011484.000
3515131586.381	1110.178	29.693	1139.871	0.026	98011484.000
3515131587.881	1106.447	34.142	1140.589	0.030	98011484.000
3515131589.381	1029.988	-46.371	983.617	-0.047	98011484.000
3515131590.881	1108.535	-7.109	1101.426	-0.006	98011484.000
3515131592.382	1140.503	49.147	1189.650	0.041	98011484.000
3515131593.882	1071.861	-53.280	1018.581	-0.052	98011484.000
3515131595.382	1147.386	-2.958	1144.428	-0.003	98011484.000
3515131596.882	1138.238	45.284	1183.522	0.038	98011484.000
3515131598.382	1163.056	35.222	1198.278	0.029	98011484.000
3515131599.882	1059.650	-35.024	1024.626	-0.034	98011484.000
3515131601.382	1074.304	-15.687	1058.617	-0.015	98011484.000
3515131602.882	1160.305	41.444	1201.749	0.034	98011484.000
3515131604.381	1111.598	-59.496	1052.102	-0.057	98011484.000
3515131605.881	1126.251	-21.807	1104.444	-0.020	98011484.000
3515131607.381	1163.813	-4.933	1158.880	-0.004	98011484.000
3515131608.881	1069.639	-14.407	1055.232	-0.014	98011484.000
3515131610.381	1148.495	-60.976	1087.520	-0.056	98011484.000
3515131611.882	1134.772	50.418	1185.190	0.043	98011484.000
3515131613.383	1095.166	34.824	1129.990	0.031	98011484.000
3515131614.883	1161.768	-56.640	1105.128	-0.051	98011484.000
3515131616.382	1110.265	34.924	1145.189	0.030	98011484.000
3515131617.882	1082.737	-21.313	1061.424	-0.020	98011484.000
3515131619.382	1148.003	59.593	1207.596	0.049	98011484.000
3515131620.882	1063.778	-76.864	986.914	-0.078	98011484.000
3515131622.382	1102.185	-7.593	1094.592	-0.007	98011484.000
3515131623.882	1135.664	-13.120	1122.544	-0.012	98011484.000
3515131625.382	1076.076	11.349	1087.425	0.010	98011484.000
3515131626.881	1118.658	34.040	1152.698	0.030	98011484.000
3515131628.382	1075.593	10.462	1086.055	0.010	98011484.000
3515131629.882	1030.792	2.171	1032.963	0.002	98011484.000
3515131631.382	1138.058	19.040	1157.098	0.016	98011484.000
3515131632.882	1104.319	105.289	1209.608	0.087	98011484.000
3515131634.382	1154.753	134.189	1288.942	0.104	98011484.000
3515131635.883	1125.897	-42.424	1083.473	-0.039	98011484.000
3515131637.382	1165.852	-17.667	1148.185	-0.015	98011484.000
3515131638.882	1222.508	153.031	1375.539	0.111	98011484.000
3515131640.382	1139.394	44.400	1183.794	0.038	98011484.000
3515131641.882	1128.736	-4.342	1124.394	-0.004	98011484.000
3515131643.381	1123.895	26.938	1150.833	0.023	98011484.000
3515131644.882	996.910	-1.980	994.930	-0.002	98011484.000
3515131646.382	1107.246	35.031	1142.277	0.031	98011484.000
3515131647.883	1145.345	103.404	1248.749	0.083	98011484.000
3515131649.382	1090.600	28.027	1118.626	0.025	98011484.000
3515131650.882	1203.954	43.420	1247.374	0.035	98011484.000
3515131652.382	1209.591	66.893	1276.484	0.052	98011484.000
3515131653.882	1104.495	-101.133	1003.362	-0.101	98011484.000
3515131655.381	1111.286	-116.136	995.150	-0.117	98011484.000
3515131656.882	1117.016	39.267	1156.283	0.034	98011484.000
3515131658.382	1109.111	57.218	1166.329	0.049	98011484.000
3515131659.882	1160.705	-3.151	1157.554	-0.003	98011484.000
3515131661.382	1209.012	32.556	1241.568	0.026	98011484.000
3515131662.882	1109.066	-26.140	1082.926	-0.024	98011484.000
3515131664.383	1074.967	-26.047	1048.920	-0.025	98011484.000
3515131665.882	1054.945	37.000	1091.945	0.034	98011484.000
3515131667.383	1053.479	4.640	1058.119	0.004	98011484.000
3515131668.882	1091.706	-97.384	994.322	-0.098	98011484.000
3515131670.384	1096.190	-42.231	1053.959	-0.040	98011484.000
3515131671.882	1172.560	2.756	1175.316	0.002	98011484.000
3515131673.382	1031.544	383.120	1414.664	0.271	98011484.000
3515131674.882	1213.409	47.456	1260.865	0.038	98011484.000
3515131676.382	1148.672	-3.947	1144.725	-0.003	98011484.000
3515131677.882	1159.597	361.809	1521.406	0.238	98011484.000
3515131679.381	1093.791	451.493	1545.284	0.292	98011484.000
3515131680.882	1077.545	456.531	1534.076	0.298	98011484.000
3515131682.383	1127.092	594.271	1721.363	0.345	98011484.000
3515131683.883	1218.159	466.404	1684.563	0.277	98011484.000
3515131685.383	1100.145	546.027	1646.172	0.332	98011484.000
3515131686.883	1057.518	347.113	1404.631	0.247	98011484.000
3515131688.383	1168.607	549.864	1718.471	0.320	98011484.000
3515131689.882	1075.766	542.265	1618.031	0.335	98011484.000
3515131691.382	1133.711	497.869	1631.580	0.305	98011484.000
3515131692.882	1115.592	627.124	1742.716	0.360	98011484.000
3515131694.382	1109.025	505.864	1614.890	0.313	98011484.000
3515131695.882	1185.794	516.322	1702.116	0.303	98011484.000
3515131697.382	1070.439	506.944	1577.384	0.321	98011484.000
3515131698.883	1163.858	488.993	1652.851	0.296	98011484.000
3515131700.383	1177.711	475.573	1653.284	0.288	98011484.000
3515131701.883	1201.908	411.340	1613.248	0.255	98011484.000
3515131703.382	1169.190	452.191	1621.381	0.279	98011484.000
3515131704.883	1138.284	455.544	1593.828	0.286	98011484.000
3515131706.383	1112.928	449.029	1561.957	0.287	98011484.000
3515131707.882	1190.676	443.111	1633.787	0.271	98011484.000
3515131709.382	1130.954	273.700	1404.654	0.195	98011484.000
3515131710.882	1174.071	496.200	1670.271	0.297	98011484.000
3515131712.382	1152.089	549.962	1702.051	0.323	98011484.000
3515131713.882	1128.823	381.840	1510.663	0.253	98011484.000
3515131715.382	1087.887	520.562	1608.449	0.324	98011484.000
3515131716.883	1131.312	500.244	1631.556	0.307	98011484.000
3515131718.383	1038.160	468.276	1506.436	0.311	98011484.000
3515131719.883	1095.353	482.978	1578.331	0.306	98011484.000
3515131721.383	1095.883	496.976	1592.859	0.312	98011484.000
3515131722.883	1182.860	477.151	1660.011	0.287	98011484.000
3515131724.382	1149.027	364.669	1513.696	0.241	98011484.000
3515131725.882	1231.166	580.058	1811.224	0.320	98011484.000
3515131727.382	1131.976	405.618	1537.594	0.264	98011484.000
3515131728.882	1125.091	506.056	1631.146	0.310	98011484.000
3515131730.382	1121.455	486.727	1608.182	0.303	98011484.000
3515131731.882	1174.957	526.591	1701.548	0.309	98011484.000
3515131733.383	1089.934	534.778	1624.712	0.329	98011484.000
3515131734.883	1122.966	584.404	1707.370	0.342	98011484.000
3515131736.384	1139.039	517.109	1656.148	0.312	98011484.000
3515131737.883	1055.966	534.576	1590.542	0.336	98011484.000
3515131739.383	1136.906	545.527	1682.433	0.324	98011484.000
3515131740.883	1129.889	555.000	1684.889	0.329	98011484.000
3515131742.382	1172.516	635.018	1807.534	0.351	98011484.000
3515131743.882	1099.655	527.276	1626.931	0.324	98011484.000
3515131745.383	1039.804	656.825	1696.629	0.387	98011484.000
3515131746.883	1178.287	539.704	1717.991	0.314	98011484.000
3515131748.383	1169.586	517.900	1687.486	0.307	98011484.000
3515131749.882	1121.632	516.811	1638.443	0.315	98011484.000
3515131751.384	1069.063	510.111	1579.174	0.323	98011484.000
3515131752.883	1103.339	585.096	1688.435	0.347	98011484.000
3515131754.383	1127.448	650.904	1778.352	0.366	98011484.000
3515131755.883	1072.171	474.187	1546.358	0.307	98011484.000
3515131757.384	1049.530	457.327	1506.857	0.303	98011484.000
3515131758.883	1147.119	581.740	1728.859	0.336	98011484.000
3515131760.383	1179.576	353.031	1532.607	0.230	98011484.000
3515131761.882	1195.827	392.102	1587.929	0.247	98011484.000
3515131763.382	1131.444	527.962	1659.406	0.318	98011484.000
3515131764.882	1103.384	526.482	1629.866	0.323	98011484.000
3515131766.383	1134.240	516.416	1650.656	0.313	98011484.000
3515131767.884	1207.057	581.540	1788.597	0.325	98011484.000
3515131769.384	1184.146	520.167	1704.313	0.305	98011484.000
3515131770.884	1173.759	526.184	1699.943	0.310	98011484.000
3515131772.383	1116.794	481.096	1597.890	0.301	98011484.000
3515131773.883	1041.049	414.993	1456.042	0.285	98011484.000
3515131775.383	1074.523	515.333	1589.856	0.324	98011484.000
3515131776.883	1045.487	608.862	1654.349	0.368	98011484.000
3515131778.383	1074.924	604.338	1679.262	0.360	98011484.000
3515131779.883	1232.279	494.220	1726.499	0.286	98011484.000
3515131781.383	1136.902	572.953	1709.855	0.335	98011484.000
3515131782.883	1123.587	487.311	1610.898	0.303	98011484.000
3515131784.383	1127.454	503.111	1630.565	0.309	98011484.000
3515131785.883	1044.601	596.244	1640.845	0.363	98011484.000
3515131787.383	1169.853	527.073	1696.926	0.311	98011484.000
3515131788.884	1187.880	697.967	1885.847	0.370	98011484.000
3515131790.383	1092.239	540.391	1632.630	0.331	98011484.000
3515131791.883	1120.165	497.473	1617.638	0.308	98011484.000
3515131793.384	1148.099	565.562	1713.661	0.330	98011484.000
3515131794.883	1210.568	731.022	1941.590	0.377	98011484.000
3515131796.383	1103.293	464.320	1567.613	0.296	98011484.000
3515131797.882	1185.477	518.098	1703.575	0.304	98011484.000
3515131799.382	1155.643	533.093	1688.736	0.316	98011484.000
3515131800.882	1074.703	536.749	1611.452	0.333	98011484.000
3515131802.383	1125.184	512.967	1638.151	0.313	98011484.000
3515131803.883	1170.383	500.829	1671.212	0.300	98011484.000
3515131805.383	1189.785	511.880	1701.665	0.301	98011484.000
3515131806.884	1103.957	465.702	1569.659	0.297	98011484.000
3515131808.383	1129.310	503.198	1632.508	0.308	98011484.000
3515131809.883	1119.679	489.882	1609.561	0.304	98011484.000
3515131811.383	1205.060	533.489	1738.549	0.307	98011484.000
3515131812.883	1118.613	589.033	1707.646	0.345	98011484.000
3515131814.383	1130.957	444.398	1575.355	0.282	98011484.000
3515131815.883	1109.869	619.333	1729.202	0.358	98011484.000
3515131817.383	1025.861	570.291	1596.152	0.357	98011484.000
3515131818.883	1115.639	562.007	1677.646	0.335	98011484.000
3515131820.384	1100.011	482.085	1582.095	0.305	98011484.000
3515131821.883	1166.433	526.587	1693.020	0.311	98011484.000
3515131823.384	1259.490	478.133	1737.623	0.275	98011484.000
3515131824.883	1162.876	538.227	1701.103	0.316	98011484.000
3515131826.383	1126.607	557.664	1684.271	0.331	98011484.000
3515131827.884	1016.228	604.424	1620.652	0.373	98011484.000
3515131829.383	1129.094	628.711	1757.805	0.358	98011484.000
3515131830.883	1075.192	525.004	1600.197	0.328	98011484.000
3515131832.383	1137.620	476.467	1614.087	0.295	98011484.000
3515131833.883	1117.457	500.536	1617.992	0.309	98011484.000
3515131835.383	1081.849	521.553	1603.402	0.325	98011484.000
3515131836.883	1171.983	651.102	1823.085	0.357	98011484.000
3515131838.384	1120.527	447.265	1567.792	0.285	98011484.000
3515131839.884	1124.383	551.836	1676.219	0.329	98011484.000
3515131841.384	1096.102	507.738	1603.840	0.317	98011484.000
3515131842.884	1106.805	572.069	1678.874	0.341	98011484.000
3515131844.384	1036.914	594.264	1631.178	0.364	98011484.000
3515131845.883	1102.232	488.398	1590.630	0.307	98011484.000
3515131847.383	1243.422	514.647	1758.069	0.293	98011484.000
3515131848.883	1074.568	422.589	1497.157	0.282	98011484.000
3515131850.383	1129.935	538.327	1668.262	0.323	98011484.000
3515131851.884	1108.935	597.527	1706.462	0.350	98011484.000
3515131853.383	1107.603	437.491	1545.094	0.283	98011484.000
3515131854.883	1117.637	446.176	1563.812	0.285	98011484.000
3515131856.385	1154.085	554.602	1708.687	0.325	98011484.000
3515131857.884	1267.040	435.220	1702.260	0.256	98011484.000
3515131859.384	1143.878	483.660	1627.538	0.297	98011484.000
3515131860.884	1131.043	587.256	1718.299	0.342	98011484.000
3515131862.384	1136.020	432.553	1568.573	0.276	98011484.000
3515131863.884	1181.395	546.127	1727.522	0.316	98011484.000
3515131865.383	1207.634	505.569	1713.203	0.295	98011484.000
3515131866.883	1149.824	479.720	1629.544	0.294	98011484.000
3515131868.383	1072.658	363.284	1435.942	0.253	98011484.000
3515131869.883	1087.713	469.060	1556.773	0.301	98011484.000
3515131871.383	1082.738	504.478	1587.216	0.318	98011484.000
3515131872.884	1059.739	454.653	1514.392	0.300	98011484.000
3515131874.384	1110.932	659.391	1770.323	0.372	98011484.000
3515131875.884	1064.354	605.811	1670.165	0.363	98011484.000
3515131877.385	1052.192	525.400	1577.592	0.333	98011484.000
3515131878.885	1126.650	518.989	1645.639	0.315	98011484.000
3515131880.385	1064.183	483.276	1547.458	0.312	98011484.000
3515131881.884	1169.005	609.164	1778.170	0.343	98011484.000
3515131883.383	1061.337	412.229	1473.566	0.280	98011484.000
3515131884.883	1094.370	496.687	1591.057	0.312	98011484.000
3515131886.383	1114.173	483.762	1597.935	0.303	98011484.000
3515131887.883	1041.224	636.600	1677.824	0.379	98011484.000
3515131889.374	1033.052	582.918	1615.970	0.361	98011484.000
3515131890.885	1146.585	559.240	1705.825	0.328	98011484.000
3515131892.384	1129.091	543.349	1672.440	0.325	98011484.000
3515131893.884	1115.682	574.927	1690.609	0.340	98011484.000
3515131895.384	1095.436	525.991	1621.427	0.324	98011484.000
3515131896.884	1074.881	537.444	1612.326	0.333	98011484.000
3515131898.384	1076.611	582.129	1658.740	0.351	98011484.000
3515131899.884	1103.873	548.389	1652.262	0.332	98011484.000
3515131901.384	1145.609	592.987	1738.596	0.341	98011484.000
3515131902.884	1130.999	712.280	1843.279	0.386	98011484.000
3515131904.384	1093.573	625.351	1718.924	0.364	98011484.000
3515131905.883	1020.046	589.236	1609.281	0.366	98011484.000
3515131907.384	1079.410	566.742	1646.152	0.344	98011484.000
3515131908.885	1060.849	559.933	1620.782	0.345	98011484.000
3515131910.384	1011.967	545.338	1557.305	0.350	98011484.000
3515131911.885	1116.172	609.762	1725.934	0.353	98011484.000
3515131913.385	1071.063	462.349	1533.412	0.302	98011484.000
3515131914.884	1123.630	596.331	1719.961	0.347	98011484.000
3515131916.385	1049.660	604.724	1654.385	0.366	98011484.000
3515131917.883	1173.090	545.038	1718.128	0.317	98011484.000
3515131919.383	1129.270	501.227	1630.497	0.307	98011484.000
3515131920.883	1127.272	440.551	1567.823	0.281	98011484.000
3515131922.384	1132.643	615.784	1748.427	0.352	98011484.000
3515131923.884	1192.893	447.940	1640.833	0.273	98011484.000
3515131925.385	1188.144	535.071	1723.215	0.311	98011484.000
3515131926.885	1133.178	421.700	1554.878	0.271	98011484.000
3515131928.385	1110.973	473.200	1584.173	0.299	98011484.000
3515131929.884	1152.978	534.867	1687.845	0.317	98011484.000
3515131931.385	1131.711	414.200	1545.911	0.268	98011484.000
3515131932.885	1114.441	429.007	1543.448	0.278	98011484.000
3515131934.384	1136.684	425.647	1562.331	0.272	98011484.000
3515131935.884	1109.689	519.184	1628.873	0.319	98011484.000
3515131937.384	1125.495	442.713	1568.208	0.282	98011484.000
3515131938.884	1131.268	507.144	1638.412	0.310	98011484.000
3515131940.384	1170.871	540.598	1711.469	0.316	98011484.000
3515131941.884	1179.264	401.580	1580.844	0.254	98011484.000
3515131943.385	1170.118	486.527	1656.645	0.294	98011484.000
3515131944.885	1011.342	436.996	1448.338	0.302	98011484.000
3515131946.385	1116.217	454.856	1571.073	0.290	98011484.000
3515131947.885	1202.262	462.056	1664.318	0.278	98011484.000
3515131949.385	1203.330	518.398	1721.728	0.301	98011484.000
3515131950.885	1145.918	439.464	1585.383	0.277	98011484.000
3515131952.384	1252.434	464.224	1716.658	0.270	98011484.000
3515131953.884	1123.630	373.451	1497.081	0.249	98011484.000
3515131955.384	1116.440	398.520	1514.960	0.263	98011484.000
3515131956.884	1184.282	389.736	1574.017	0.248	98011484.000
3515131958.384	1117.817	386.282	1504.099	0.257	98011484.000
3515131959.884	1180.687	363.787	1544.474	0.236	98011484.000
3515131961.385	1186.011	435.309	1621.320	0.268	98011484.000
3515131962.885	1136.950	527.869	1664.819	0.317	98011484.000
3515131964.385	1213.052	428.213	1641.265	0.261	98011484.000
3515131965.885	1225.840	385.293	1611.133	0.239	98011484.000
3515131967.385	1118.479	301.620	1420.099	0.212	98011484.000
3515131968.885	1117.817	349.089	1466.906	0.238	98011484.000
3515131970.384	1199.909	360.722	1560.631	0.231	98011484.000
3515131971.884	1203.770	497.078	1700.848	0.292	98011484.000
3515131973.384	1179.354	378.687	1558.041	0.243	98011484.000
3515131974.885	1178.199	427.622	1605.821	0.266	98011484.000
3515131976.385	1266.019	390.029	1656.048	0.236	98011484.000
3515131977.885	1228.415	421.309	1649.724	0.255	98011484.000
3515131979.385	1200.441	419.824	1620.266	0.259	98011484.000
3515131980.885	1100.675	325.204	1425.880	0.228	98011484.000
3515131982.385	1164.704	476.564	1641.269	0.290	98011484.000
3515131983.885	1206.214	491.658	1697.872	0.290	98011484.000
3515131985.385	1238.630	415.393	1654.023	0.251	98011484.000
3515131986.885	1059.606	426.933	1486.539	0.287	98011484.000
3515131988.447	1146.143	494.129	1640.272	0.301	98011484.000
3515131989.885	1101.608	384.802	1486.410	0.259	98011484.000
3515131991.384	1152.979	548.391	1701.370	0.322	98011484.000
3515131992.885	1096.729	354.018	1450.747	0.244	98011484.000
3515131994.385	1090.509	485.440	1575.949	0.308	98011484.000
3515131995.885	1025.728	528.560	1554.288	0.340	98011484.000
3515131997.385	1120.838	498.178	1619.016	0.308	98011484.000
3515131998.886	1153.734	475.469	1629.203	0.292	98011484.000
3515132000.385	1066.622	528.858	1595.480	0.331	98011484.000
3515132001.885	1130.471	464.033	1594.504	0.291	98011484.000
3515132003.385	1140.370	541.876	1682.245	0.322	98011484.000
3515132004.885	1091.530	493.822	1585.352	0.311	98011484.000
3515132006.385	1123.185	520.269	1643.454	0.317	98011484.000
3515132007.885	1110.754	435.909	1546.663	0.282	98011484.000
3515132009.385	1086.911	539.216	1626.126	0.332	98011484.000
3515132010.885	1144.631	431.669	1576.300	0.274	98011484.000
3515132012.385	1050.505	434.624	1485.129	0.293	98011484.000
3515132013.886	1135.399	398.424	1533.823	0.260	98011484.000
3515132015.386	1225.128	455.738	1680.866	0.271	98011484.000
3515132016.886	1107.113	495.698	1602.811	0.309	98011484.000
3515132018.385	1272.547	412.922	1685.469	0.245	98011484.000
3515132019.885	1062.491	405.813	1468.304	0.276	98011484.000
3515132021.385	1121.853	547.887	1669.740	0.328	98011484.000
3515132022.885	1136.682	614.887	1751.569	0.351	98011484.000
3515132024.385	1096.321	527.967	1624.288	0.325	98011484.000
3515132025.885	1082.693	525.698	1608.391	0.327	98011484.000
3515132027.385	1105.516	466.493	1572.009	0.297	98011484.000
3515132028.884	1092.505	490.862	1583.367	0.310	98011484.000
3515132030.385	1074.526	546.816	1621.342	0.337	98011484.000
3515132031.893	1057.608	407.391	1464.999	0.278	98011484.000
3515132033.393	1180.507	479.520	1660.027	0.289	98011484.000
3515132034.886	1151.915	346.320	1498.235	0.231	98011484.000
3515132036.391	1143.303	466.696	1609.999	0.290	98011484.000
3515132037.885	1100.276	461.164	1561.440	0.295	98011484.000
3515132039.385	1174.115	552.240	1726.355	0.320	98011484.000
3515132040.885	1169.277	668.176	1837.453	0.364	98011484.000
3515132042.385	1134.198	393.487	1527.685	0.258	98011484.000
3515132043.885	1194.669	521.947	1716.616	0.304	98011484.000
3515132045.385	1156.576	505.467	1662.043	0.304	98011484.000
3515132046.885	1170.294	531.016	1701.310	0.312	98011484.000
3515132048.386	1107.468	446.660	1554.128	0.287	98011484.000
3515132049.886	1130.380	641.327	1771.707	0.362	98011484.000
3515132051.386	1121.769	529.847	1651.616	0.321	98011484.000
3515132052.885	1180.642	539.018	1719.660	0.313	98011484.000
3515132054.394	1222.242	427.327	1649.569	0.259	98011484.000
3515132055.886	1137.574	458.807	1596.381	0.287	98011484.000
3515132057.393	1228.412	399.398	1627.810	0.245	98011484.000
3515132058.892	1162.528	393.391	1555.919	0.253	98011484.000
3515132060.390	1158.617	341.380	1499.997	0.228	98011484.000
3515132061.885	1235.254	398.616	1633.870	0.244	98011484.000
3515132063.390	1095.035	426.536	1521.571	0.280	98011484.000
3515132064.885	1196.625	525.202	1721.827	0.305	98011484.000
3515132066.386	1256.741	444.689	1701.430	0.261	98011484.000
3515132067.892	1159.242	393.880	1553.122	0.254	98011484.000
3515132069.386	1103.650	368.024	1471.675	0.250	98011484.000
3515132070.886	1203.687	367.442	1571.129	0.234	98011484.000
3515132072.391	1164.567	400.682	1565.249	0.256	98011484.000
3515132073.894	1102.360	406.402	1508.762	0.269	98011484.000
3515132075.385	1177.751	562.204	1739.955	0.323	98011484.000
3515132076.893	1144.674	450.707	1595.381	0.283	98011484.000
3515132078.391	1055.831	306.460	1362.291	0.225	98011484.000
3515132079.894	1152.448	399.407	1551.855	0.257	98011484.000
3515132081.386	1206.436	503.400	1709.836	0.294	98011484.000
3515132082.895	1050.592	367.831	1418.423	0.259	98011484.000
3515132084.391	1125.582	390.027	1515.609	0.257	98011484.000
3515132085.895	1172.516	338.431	1510.947	0.224	98011484.000
3515132087.386	1171.494	618.549	1790.043	0.346	98011484.000
3515132088.886	1233.875	547.996	1781.870	0.308	98011484.000
3515132090.391	1178.330	366.344	1544.674	0.237	98011484.000
3515132091.893	1217.983	400.000	1617.983	0.247	98011484.000
3515132093.393	1125.804	364.769	1490.573	0.245	98011484.000
3515132094.893	1030.480	495.511	1525.991	0.325	98011484.000
3515132096.394	1159.817	455.542	1615.359	0.282	98011484.000
3515132097.885	1206.745	418.542	1625.287	0.258	98011484.000
3515132099.392	1169.227	418.938	1588.165	0.264	98011484.000
3515132100.893	1228.146	265.704	1493.850	0.178	98011484.000
3515132102.391	1251.504	508.829	1760.333	0.289	98011484.000
3515132103.895	1194.229	400.884	1595.113	0.251	98011484.000
3515132105.393	1156.308	376.316	1532.624	0.246	98011484.000
3515132106.892	1103.472	215.980	1319.452	0.164	98011484.000
3515132108.393	1122.387	488.100	1610.487	0.303	98011484.000
3515132109.891	1183.213	324.216	1507.429	0.215	98011484.000
3515132111.392	1198.577	293.929	1492.506	0.197	98011484.000
3515132112.893	1133.043	417.267	1550.310	0.269	98011484.000
3515132114.390	1225.041	362.500	1587.541	0.228	98011484.000
3515132115.891	1090.596	299.649	1390.245	0.216	98011484.000
3515132117.393	1068.176	412.722	1480.898	0.279	98011484.000
3515132118.892	1136.197	395.947	1532.144	0.258	98011484.000
3515132120.393	1031.279	390.129	1421.408	0.274	98011484.000
3515132121.893	1203.684	390.227	1593.911	0.245	98011484.000
3515132123.393	1075.100	413.909	1489.009	0.278	98011484.000
3515132124.893	1157.730	431.773	1589.503	0.272	98011484.000
3515132126.392	1205.014	317.111	1522.125	0.208	98011484.000
3515132127.893	1181.839	275.180	1457.019	0.189	98011484.000
3515132129.392	1194.183	452.589	1646.772	0.275	98011484.000
3515132130.892	1193.028	373.062	1566.090	0.238	98011484.000
3515132132.394	1117.502	380.451	1497.953	0.254	98011484.000
3515132133.891	1093.883	438.576	1532.458	0.286	98011484.000
3515132135.394	1201.109	434.820	1635.929	0.266	98011484.000
3515132136.895	1160.082	499.351	1659.433	0.301	98011484.000
3515132138.393	1131.667	370.000	1501.667	0.246	98011484.000
3515132139.894	1069.817	429.691	1499.508	0.287	98011484.000
3515132141.393	1038.694	507.344	1546.038	0.328	98011484.000
3515132142.893	1070.619	523.331	1593.950	0.328	98011484.000
3515132144.392	1143.345	486.233	1629.578	0.298	98011484.000
3515132145.893	1116.036	468.067	1584.103	0.295	98011484.000
3515132147.391	1090.372	380.064	1470.436	0.258	98011484.000
3515132148.892	1156.575	392.502	1549.077	0.253	98011484.000
3515132150.394	1103.563	450.716	1554.279	0.290	98011484.000
3515132151.893	1086.024	400.687	1486.711	0.270	98011484.000
3515132153.396	1207.457	251.696	1459.153	0.172	98011484.000
3515132154.894	1158.486	371.680	1530.166	0.243	98011484.000
3515132156.393	1196.847	299.158	1496.005	0.200	98011484.000
3515132157.893	1303.362	381.056	1684.417	0.226	98011480.000
3515132159.392	1341.015	227.124	1568.139	0.145	98011476.000
3515132160.896	1421.556	195.069	1616.625	0.121	98011472.000
3515132162.391	1416.669	283.271	1699.940	0.167	98011468.000
3515132163.894	1479.363	213.616	1692.979	0.126	98011464.000
3515132165.391	1341.636	8.587	1350.223	0.006	98011460.000
3515132166.894	1343.544	141.393	1484.937	0.095	98011456.000
3515132168.393	1360.058	69.260	1429.318	0.048	98011460.000
3515132169.893	1349.003	158.260	1507.263	0.105	98011464.000
3515132171.395	1377.952	192.496	1570.448	0.123	98011468.000
3515132172.894	1314.019	325.104	1639.123	0.198	98011472.000
3515132174.393	1124.386	212.240	1336.626	0.159	98011476.000
3515132175.893	1143.745	423.280	1567.025	0.270	98011480.000
3515132177.394	1060.005	345.531	1405.536	0.246	98011484.000
3515132178.893	1151.908	532.298	1684.206	0.316	98011488.000
3515132180.390	1043.138	442.227	1485.365	0.298	98011492.000
3515132181.893	996.474	561.611	1558.085	0.360	98011496.000
3515132183.395	1002.598	447.156	1449.754	0.308	98011500.000
3515132184.893	1074.699	615.378	1690.077	0.364	98011504.000
3515132186.393	1185.747	425.153	1610.900	0.264	98011508.000
3515132187.894	1135.487	423.869	1559.356	0.272	98011512.000
3515132189.395	1149.914	371.480	1521.394	0.244	98011516.000
3515132190.895	1216.291	336.840	1553.131	0.217	98011520.000
3515132192.394	1232.148	219.238	1451.386	0.151	98011524.000
3515132193.894	1365.524	224.173	1589.697	0.141	98011528.000
3515132195.393	1339.594	91.464	1431.059	0.064	98011532.000
3515132196.893	1362.813	100.249	1463.062	0.069	98011536.000
3515132198.391	1334.488	250.413	1584.901	0.158	98011536.000
3515132199.893	1337.904	141.584	1479.489	0.096	98011536.000
3515132201.394	1408.727	197.731	1606.458	0.123	98011536.000
3515132202.894	1433.633	100.647	1534.280	0.066	98011536.000
3515132204.393	1375.377	63.640	1439.017	0.044	98011536.000
3515132205.891	1410.235	190.136	1600.371	0.119	98011536.000
3515132207.393	1367.652	113.460	1481.112	0.077	98011536.000
3515132208.893	1322.281	-56.433	1265.848	-0.045	98011536.000
3515132210.391	1351.667	31.278	1382.945	0.023	98011532.000
3515132211.895	1380.530	191.118	1571.648	0.122	98011528.000
3515132213.394	1219.490	190.818	1410.308	0.135	98011524.000
3515132214.893	1129.889	338.036	1467.925	0.230	98011520.000
3515132216.393	1181.220	385.887	1567.107	0.246	98011516.000
3515132217.893	1080.743	523.033	1603.776	0.326	98011512.000
3515132219.393	990.342	467.680	1458.022	0.321	98011508.000
3515132220.893	1029.856	561.120	1590.976	0.353	98011504.000
3515132222.393	1006.816	555.398	1562.214	0.356	98011500.000
3515132223.894	929.204	549.380	1478.584	0.372	98011496.000
3515132225.394	1028.702	617.258	1645.960	0.375	98011496.000
3515132226.896	982.038	540.198	1522.236	0.355	98011496.000
3515132228.396	1046.505	571.571	1618.076	0.353	98011496.000
3515132229.894	1083.761	592.298	1676.059	0.353	98011496.000
3515132231.393	1045.933	526.096	1572.029	0.335	98011496.000
3515132232.895	1106.979	604.429	1711.408	0.353	98011496.000
3515132234.393	1029.148	555.696	1584.844	0.351	98011496.000
3515132235.893	993.360	341.673	1335.033	0.256	98011496.000
3515132237.393	1016.001	602.256	1618.257	0.372	98011496.000
3515132238.895	1028.924	492.149	1521.073	0.324	98011496.000
3515132240.399	1074.879	355.691	1430.570	0.249	98011496.000
3515132241.894	1051.658	459.387	1511.045	0.304	98011496.000
3515132243.396	993.495	400.784	1394.280	0.287	98011496.000
3515132244.895	1015.252	464.618	1479.870	0.314	98011496.000
3515132246.393	946.832	429.204	1376.036	0.312	98011496.000
3515132247.895	1089.222	385.000	1474.222	0.261	98011496.000
3515132249.393	1005.395	215.287	1220.682	0.176	98011496.000
3515132250.894	1128.956	502.011	1630.967	0.308	98011496.000
3515132252.393	1040.691	612.620	1653.311	0.371	98011496.000
3515132253.894	1099.566	670.838	1770.404	0.379	98011496.000
3515132255.393	1033.764	673.796	1707.560	0.395	98011496.000
3515132256.890	1001.262	625.151	1626.413	0.384	98011496.000
3515132258.394	1078.254	695.598	1773.852	0.392	98011496.000
3515132259.893	1079.451	696.478	1775.929	0.392	98011496.000
3515132261.393	889.332	483.960	1373.292	0.352	98011496.000
3515132262.894	1088.107	578.578	1666.685	0.347	98011496.000
3515132264.391	1021.775	619.224	1641.000	0.377	98011496.000
3515132265.895	1016.983	613.116	1630.099	0.376	98011496.000
3515132267.392	1051.699	573.449	1625.148	0.353	98011496.000
3515132268.894	1098.325	554.809	1653.134	0.336	98011496.000
3515132270.393	1108.268	663.931	1772.199	0.375	98011496.000
3515132271.896	1056.985	586.378	1643.363	0.357	98011496.000
3515132273.394	1048.994	564.867	1613.861	0.350	98011496.000
3515132274.894	1015.295	563.887	1579.182	0.357	98011496.000
3515132276.393	1022.178	569.604	1591.782	0.358	98011496.000
3515132277.894	972.050	456.533	1428.583	0.320	98011496.000
3515132279.394	1024.976	418.844	1443.821	0.290	98011496.000
3515132280.895	1056.275	123.529	1179.804	0.105	98011496.000
3515132282.393	1033.406	51.104	1084.510	0.047	98011496.000
3515132283.892	948.782	4.438	953.220	0.005	98011496.000
3515132285.381	1038.784	139.122	1177.906	0.118	98011496.000
3515132286.896	1115.504	256.831	1372.335	0.187	98011496.000
3515132288.395	1097.170	47.753	1144.923	0.042	98011496.000
3515132289.895	1088.866	52.887	1141.753	0.046	98011496.000
3515132291.393	1020.488	38.382	1058.870	0.036	98011496.000
3515132292.893	1062.624	689.184	1751.809	0.393	98011496.000
3515132294.395	1028.700	478.431	1507.131	0.317	98011496.000
3515132295.895	1112.711	795.551	1908.262	0.417	98011496.000
3515132297.395	1004.063	653.276	1657.339	0.394	98011496.000
3515132298.892	1063.206	678.536	1741.741	0.390	98011496.000
3515132300.394	966.498	525.302	1491.800	0.352	98011496.000
3515132301.894	1056.098	762.693	1818.791	0.419	98011496.000
3515132303.393	1034.164	624.656	1658.820	0.377	98011496.000
3515132304.894	1040.111	611.731	1651.842	0.370	98011496.000
3515132306.394	1114.530	782.622	1897.152	0.413	98011496.000
3515132307.894	1015.161	576.807	1591.968	0.362	98011496.000
3515132309.394	1053.965	601.671	1655.636	0.363	98011496.000
3515132310.897	1031.455	594.664	1626.119	0.366	98011496.000
3515132312.394	1048.066	516.127	1564.193	0.330	98011496.000
3515132313.895	1004.729	578.191	1582.920	0.365	98011496.000
3515132315.393	1075.145	674.284	1749.429	0.385	98011496.000
3515132316.895	1049.839	634.824	1684.664	0.377	98011496.000
3515132318.395	1068.887	655.640	1724.527	0.380	98011496.000
3515132319.894	1022.180	616.769	1638.949	0.376	98011496.000
3515132321.394	995.848	617.958	1613.806	0.383	98011496.000
3515132322.896	1031.326	584.805	1616.130	0.362	98011496.000
3515132324.395	1034.431	626.633	1661.064	0.377	98011496.000
3515132325.896	1093.038	618.640	1711.678	0.361	98011496.000
3515132327.395	1121.233	44.989	1166.222	0.039	98011496.000
3515132328.895	985.946	28.518	1014.464	0.028	98011496.000
3515132330.394	1029.061	15.004	1044.065	0.014	98011496.000
3515132331.896	1044.333	42.329	1086.662	0.039	98011496.000
3515132333.394	1040.514	-24.762	1015.752	-0.024	98011496.000
3515132334.894	1056.896	112.673	1169.569	0.096	98011496.000
3515132336.398	1060.804	42.718	1103.522	0.039	98011496.000
3515132337.895	985.680	45.489	1031.169	0.044	98011496.000
3515132339.392	1046.639	58.113	1104.752	0.053	98011496.000
3515132340.896	1021.201	-76.464	944.737	-0.081	98011496.000
3515132342.396	1052.102	-40.842	1011.260	-0.040	98011496.000
3515132343.894	1073.589	8.578	1082.167	0.008	98011496.000
3515132345.395	995.625	-103.111	892.514	-0.116	98011496.000
3515132346.898	1545.386	75.482	1620.868	0.047	98011496.000
3515132348.396	1500.983	3.842	1504.825	0.003	98011496.000
3515132349.894	1488.379	4.642	1493.021	0.003	98011496.000
3515132351.393	1491.395	-37.202	1454.193	-0.026	98011496.000
3515132352.899	1450.592	21.318	1471.910	0.014	98011496.000
3515132354.392	1432.834	4.044	1436.878	0.003	98011496.000
3515132355.894	1420.043	-14.904	1405.139	-0.011	98011496.000
3515132357.392	1436.205	-94.129	1342.076	-0.070	98011496.000
3515132358.898	1454.899	70.149	1525.048	0.046	98011496.000
3515132360.395	1531.138	44.207	1575.345	0.028	98011496.000
3515132361.894	1010.985	-41.744	969.241	-0.043	98011496.000
3515132363.393	1036.517	-34.340	1002.177	-0.034	98011496.000
3515132364.893	1060.270	62.164	1122.434	0.055	98011496.000
3515132366.397	1059.782	59.187	1118.969	0.053	98011496.000
3515132367.892	928.892	-26.244	902.648	-0.029	98011496.000
3515132369.395	989.853	49.140	1038.993	0.047	98011496.000
3515132370.895	1041.802	-36.607	1005.195	-0.036	98011496.000
3515132372.398	1036.118	134.091	1170.209	0.115	98011496.000
3515132373.892	954.023	39.173	993.196	0.039	98011496.000
3515132375.395	1031.501	31.478	1062.979	0.030	98011496.000
3515132376.894	1046.464	2.071	1048.535	0.002	98011496.000
3515132378.396	1348.342	37.596	1385.938	0.027	98011496.000
3515132379.893	1288.887	17.660	1306.547	0.014	98011496.000
3515132381.396	1175.044	126.293	1301.337	0.097	98011496.000
3515132382.898	1512.221	50.220	1562.441	0.032	98011496.000
3515132384.393	1458.231	-46.767	1411.464	-0.033	98011496.000
3515132385.895	1449.084	62.951	1512.035	0.042	98011496.000
3515132387.394	1483.537	73.307	1556.844	0.047	98011496.000
3515132388.897	1401.310	-114.149	1287.161	-0.089	98011496.000
3515132390.395	1486.957	22.500	1509.457	0.015	98011496.000
3515132391.897	1431.942	13.320	1445.262	0.009	98011496.000
3515132393.395	1473.771	22.004	1495.775	0.015	98011496.000
3515132394.897	1540.414	44.991	1585.405	0.028	98011496.000
3515132396.395	1522.299	78.933	1601.232	0.049	98011496.000
3515132397.895	1377.421	3.847	1381.268	0.003	98011496.000
3515132399.396	1012.276	101.133	1113.409	0.091	98011496.000
3515132400.897	1040.516	34.147	1074.663	0.032	98011496.000
3515132402.393	1018.358	-2.369	1015.989	-0.002	98011496.000
3515132403.899	1057.742	-51.602	1006.140	-0.051	98011496.000
3515132405.394	1033.583	-26.053	1007.530	-0.026	98011496.000
3515132406.899	988.298	-183.818	804.480	-0.228	98011496.000
3515132408.399	968.587	-13.716	954.871	-0.014	98011496.000
3515132409.897	932.888	-2.467	930.421	-0.003	98011496.000
3515132411.392	968.853	-14.698	954.155	-0.015	98011496.000
3515132412.895	973.249	9.271	982.520	0.009	98011496.000
3515132414.395	1006.635	-45.982	960.653	-0.048	98011496.000
3515132415.899	1041.447	3.849	1045.296	0.004	98011496.000
3515132417.396	982.662	-3.547	979.115	-0.004	98011496.000
3515132418.893	985.683	-220.720	764.963	-0.289	98011496.000
3515132420.396	1010.322	-42.129	968.193	-0.044	98011496.000
3515132421.898	993.893	65.804	1059.698	0.062	98011496.000
3515132423.393	1003.706	53.280	1056.986	0.050	98011496.000
3515132424.891	1047.483	108.138	1155.621	0.094	98011496.000
3515132426.399	1023.287	87.609	1110.896	0.079	98011496.000
3515132427.899	995.493	-8.184	987.308	-0.008	98011496.000
3515132429.398	1041.535	144.938	1186.473	0.122	98011496.000
3515132430.899	1011.519	91.264	1102.783	0.083	98011496.000
3515132432.400	1006.771	-15.487	991.284	-0.016	98011496.000
3515132433.898	1017.379	26.242	1043.621	0.025	98011496.000
3515132435.396	1007.879	47.853	1055.732	0.045	98011496.000
3515132436.899	1086.605	26.160	1112.765	0.024	98011496.000
3515132438.396	932.667	35.716	968.383	0.037	98011496.000
3515132439.900	998.599	-119.493	879.106	-0.136	98011496.000
3515132441.398	1103.251	124.811	1228.062	0.102	98011496.000
3515132442.899	1035.405	17.860	1053.265	0.017	98011496.000
3515132444.399	1036.073	-29.798	1006.275	-0.030	98011496.000
3515132445.897	1046.155	36.516	1082.670	0.034	98011496.000
3515132447.398	1067.909	16.576	1084.484	0.015	98011496.000
3515132448.899	1105.470	75.280	1180.750	0.064	98011496.000
3515132450.400	1045.048	-10.551	1034.497	-0.010	98011496.000
3515132451.900	1011.434	7.402	1018.836	0.007	98011496.000
3515132453.394	1051.037	73.211	1124.248	0.065	98011496.000
3515132454.900	1048.019	34.936	1082.955	0.032	98011496.000
3515132456.399	980.307	-41.340	938.967	-0.044	98011496.000
3515132457.896	1059.117	3.158	1062.275	0.003	98011496.000
3515132459.399	1058.806	73.500	1132.306	0.065	98011496.000
3515132460.899	921.565	-75.678	845.887	-0.089	98011496.000
3515132462.399	1091.526	74.684	1166.210	0.064	98011496.000
3515132463.898	1041.404	96.887	1138.291	0.085	98011496.000
3515132465.399	1054.901	-103.007	951.894	-0.108	98011496.000
3515132466.899	1038.292	83.958	1122.250	0.075	98011496.000
3515132468.400	981.195	-10.660	970.535	-0.011	98011496.000
3515132469.896	1119.370	25.951	1145.321	0.023	98011496.000
3515132471.400	1017.646	101.522	1119.168	0.091	98011496.000
3515132472.900	1106.182	14.409	1120.591	0.013	98011496.000
3515132474.400	935.418	8.978	944.396	0.010	98011496.000
3515132475.899	1060.049	19.240	1079.289	0.018	98011496.000
3515132477.399	969.163	-102.909	866.254	-0.119	98011496.000
3515132478.899	1025.018	7.693	1032.711	0.007	98011496.000
3515132480.399	978.128	-2.673	975.455	-0.003	98011496.000
3515132481.899	1040.645	-11.540	1029.105	-0.011	98011496.000
3515132483.399	1015.297	-29.691	985.606	-0.030	98011496.000
3515132484.899	954.377	-127.971	826.406	-0.155	98011496.000
3515132486.400	1035.007	-22.696	1012.311	-0.022	98011496.000
3515132487.899	1026.665	59.596	1086.260	0.055	98011496.000
3515132489.401	1072.702	-33.444	1039.258	-0.032	98011496.000
3515132490.886	1030.569	-37.991	992.578	-0.038	98011496.000
3515132492.401	960.816	-33.353	927.463	-0.036	98011496.000
3515132493.900	1005.128	57.818	1062.946	0.054	98011496.000
3515132495.399	1004.240	9.573	1013.813	0.009	98011496.000
3515132496.899	1014.499	57.433	1071.932	0.054	98011496.000
3515132498.399	1045.754	3.944	1049.698	0.004	98011496.000
3515132499.898	1057.032	4.940	1061.972	0.005	98011496.000
3515132501.399	1010.459	-23.576	986.883	-0.024	98011496.000
3515132502.900	1075.637	30.396	1106.032	0.027	98011496.000
3515132504.401	1014.806	-28.907	985.899	-0.029	98011496.000
3515132505.899	949.185	-109.027	840.158	-0.130	98011496.000
3515132507.399	1061.425	50.222	1111.647	0.045	98011496.000
3515132508.899	1139.617	714.842	1854.459	0.385	98011496.000
3515132510.399	1021.465	587.065	1608.530	0.365	98011496.000
3515132511.899	1023.112	585.787	1608.899	0.364	98011496.000
3515132513.401	1093.750	650.316	1744.066	0.373	98011496.000
3515132514.900	1043.841	708.614	1752.454	0.404	98011496.000
3515132516.393	1008.679	515.931	1524.610	0.338	98011496.000
3515132517.899	1012.411	435.813	1448.224	0.301	98011496.000
3515132519.400	1051.259	547.802	1599.061	0.343	98011496.000
3515132520.901	990.566	584.009	1574.575	0.371	98011496.000
3515132522.401	1103.563	698.162	1801.725	0.387	98011496.000
3515132523.900	1122.699	636.402	1759.101	0.362	98011496.000
3515132525.401	1125.629	693.531	1819.160	0.381	98011496.000
3515132526.901	1013.073	618.831	1631.904	0.379	98011496.000
3515132528.401	1091.171	691.747	1782.918	0.388	98011496.000
3515132529.899	1036.961	704.971	1741.932	0.405	98011496.000
3515132531.398	988.656	587.760	1576.416	0.373	98011496.000
3515132532.899	1047.573	253.178	1300.751	0.195	98011496.000
3515132534.400	1057.742	668.958	1726.700	0.387	98011496.000
3515132535.900	1010.811	670.140	1680.951	0.399	98011496.000
3515132537.401	1065.066	715.136	1780.202	0.402	98011496.000
3515132538.901	1092.994	565.844	1658.838	0.341	98011496.000
3515132540.401	1013.873	585.093	1598.966	0.366	98011496.000
3515132541.901	1073.502	674.082	1747.584	0.386	98011496.000
3515132543.401	1053.832	619.233	1673.065	0.370	98011496.000
3515132544.901	988.881	-92.642	896.239	-0.103	98011496.000
3515132546.401	1081.053	83.376	1164.428	0.072	98011496.000
3515132547.900	1069.819	112.576	1182.395	0.095	98011496.000
3515132549.401	1047.929	31.971	1079.900	0.030	98011496.000
3515132550.900	1022.086	62.651	1084.737	0.058	98011496.000
3515132552.400	1050.415	110.016	1160.431	0.095	98011496.000
3515132553.900	1055.653	14.593	1070.246	0.014	98011496.000
3515132555.401	1103.917	59.502	1163.419	0.051	98011496.000
3515132556.901	1061.515	20.922	1082.437	0.019	98011496.000
3515132558.402	1001.086	46.762	1047.848	0.045	98011496.000
3515132559.901	1095.657	-6.707	1088.950	-0.006	98011496.000
3515132561.401	1018.092	-3.360	1014.732	-0.003	98011496.000
3515132562.901	985.900	-7.104	978.796	-0.007	98011496.000
3515132564.402	1070.482	54.264	1124.746	0.048	98011496.000
3515132565.900	1058.582	30.684	1089.266	0.028	98011496.000
3515132567.400	980.220	-29.307	950.913	-0.031	98011496.000
3515132568.900	1077.500	106.062	1183.562	0.090	98011496.000
3515132570.405	985.324	-52.389	932.935	-0.056	98011496.000
3515132571.901	1087.443	78.536	1165.979	0.067	98011496.000
3515132573.401	1106.182	-2.462	1103.720	-0.002	98011496.000
3515132574.901	1064.757	138.033	1202.790	0.115	98011496.000
3515132576.403	1023.019	13.516	1036.534	0.013	98011496.000
3515132577.901	1089.574	162.404	1251.978	0.130	98011496.000
3515132579.401	1072.883	33.938	1106.821	0.031	98011496.000
3515132580.901	1061.648	127.973	1189.621	0.108	98011496.000
3515132582.398	983.151	-15.389	967.762	-0.016	98011496.000
3515132583.901	1062.403	60.871	1123.274	0.054	98011496.000
